# T (K)	Lambda=e_dot/nH^2 (erg cm^3 s^-1)
1.000000e+01	6.264271e-27
1.002305e+01	6.274579e-27
1.004616e+01	6.290045e-27
1.006932e+01	6.300359e-27
1.009253e+01	6.310679e-27
1.011579e+01	6.326160e-27
1.013911e+01	6.336484e-27
1.016249e+01	6.346813e-27
1.018591e+01	6.362309e-27
1.020939e+01	6.372648e-27
1.023293e+01	6.382985e-27
1.025652e+01	6.398504e-27
1.028016e+01	6.408859e-27
1.030386e+01	6.419212e-27
1.032761e+01	6.434754e-27
1.035142e+01	6.445122e-27
1.037528e+01	6.460682e-27
1.039920e+01	6.471063e-27
1.042317e+01	6.481445e-27
1.044720e+01	6.497034e-27
1.047129e+01	6.507434e-27
1.049542e+01	6.523045e-27
1.051962e+01	6.533457e-27
1.054387e+01	6.543878e-27
1.056818e+01	6.559522e-27
1.059254e+01	6.569958e-27
1.061696e+01	6.585627e-27
1.064143e+01	6.596080e-27
1.066596e+01	6.611776e-27
1.069055e+01	6.622248e-27
1.071519e+01	6.637971e-27
1.073989e+01	6.648464e-27
1.076465e+01	6.658964e-27
1.078947e+01	6.674727e-27
1.081434e+01	6.685249e-27
1.083927e+01	6.701046e-27
1.086426e+01	6.711586e-27
1.088930e+01	6.727418e-27
1.091440e+01	6.737980e-27
1.093956e+01	6.753845e-27
1.096478e+01	6.764433e-27
1.099006e+01	6.780331e-27
1.101539e+01	6.796255e-27
1.104079e+01	6.806881e-27
1.106624e+01	6.822839e-27
1.109175e+01	6.833493e-27
1.111732e+01	6.849490e-27
1.114295e+01	6.860172e-27
1.116863e+01	6.876210e-27
1.119438e+01	6.886917e-27
1.122018e+01	6.903001e-27
1.124605e+01	6.919108e-27
1.127197e+01	6.929861e-27
1.129796e+01	6.946013e-27
1.132400e+01	6.956796e-27
1.135011e+01	6.972994e-27
1.137627e+01	6.989222e-27
1.140250e+01	7.000057e-27
1.142878e+01	7.016328e-27
1.145513e+01	7.032634e-27
1.148154e+01	7.043516e-27
1.150800e+01	7.059870e-27
1.153453e+01	7.070791e-27
1.156112e+01	7.087196e-27
1.158777e+01	7.103634e-27
1.161449e+01	7.114606e-27
1.164126e+01	7.131099e-27
1.166810e+01	7.147621e-27
1.169499e+01	7.158657e-27
1.172195e+01	7.175233e-27
1.174898e+01	7.191847e-27
1.177606e+01	7.208497e-27
1.180321e+01	7.219613e-27
1.183042e+01	7.236320e-27
1.185769e+01	7.253063e-27
1.188502e+01	7.269842e-27
1.191242e+01	7.281049e-27
1.193988e+01	7.297889e-27
1.196741e+01	7.314770e-27
1.199499e+01	7.326043e-27
1.202264e+01	7.342985e-27
1.205036e+01	7.359967e-27
1.207814e+01	7.376987e-27
1.210598e+01	7.394048e-27
1.213389e+01	7.405447e-27
1.216186e+01	7.422577e-27
1.218990e+01	7.439746e-27
1.221800e+01	7.456960e-27
1.224616e+01	7.474213e-27
1.227439e+01	7.485741e-27
1.230269e+01	7.503067e-27
1.233105e+01	7.520438e-27
1.235947e+01	7.537852e-27
1.238797e+01	7.555310e-27
1.241652e+01	7.572814e-27
1.244515e+01	7.590366e-27
1.247384e+01	7.602091e-27
1.250259e+01	7.619717e-27
1.253141e+01	7.637391e-27
1.256030e+01	7.655112e-27
1.258925e+01	7.672883e-27
1.261828e+01	7.690700e-27
1.264736e+01	7.708569e-27
1.267652e+01	7.726485e-27
1.270574e+01	7.744453e-27
1.273503e+01	7.762470e-27
1.276439e+01	7.774509e-27
1.279381e+01	7.792612e-27
1.282331e+01	7.810765e-27
1.285287e+01	7.828974e-27
1.288250e+01	7.847233e-27
1.291219e+01	7.865547e-27
1.294196e+01	7.883910e-27
1.297179e+01	7.902334e-27
1.300170e+01	7.920811e-27
1.303167e+01	7.939340e-27
1.306171e+01	7.957929e-27
1.309182e+01	7.976573e-27
1.312200e+01	7.995274e-27
1.315225e+01	8.014033e-27
1.318257e+01	8.032848e-27
1.321296e+01	8.051723e-27
1.324342e+01	8.070655e-27
1.327394e+01	8.089651e-27
1.330454e+01	8.108703e-27
1.333521e+01	8.134201e-27
1.336596e+01	8.153400e-27
1.339677e+01	8.172656e-27
1.342765e+01	8.191977e-27
1.345860e+01	8.211358e-27
1.348963e+01	8.230806e-27
1.352073e+01	8.250316e-27
1.355189e+01	8.269889e-27
1.358313e+01	8.289529e-27
1.361445e+01	8.309237e-27
1.364583e+01	8.335613e-27
1.367729e+01	8.355474e-27
1.370882e+01	8.375400e-27
1.374042e+01	8.395399e-27
1.377209e+01	8.415462e-27
1.380384e+01	8.435593e-27
1.383566e+01	8.462548e-27
1.386756e+01	8.482841e-27
1.389953e+01	8.503209e-27
1.393157e+01	8.523651e-27
1.396368e+01	8.544158e-27
1.399587e+01	8.571618e-27
1.402814e+01	8.592299e-27
1.406048e+01	8.613053e-27
1.409289e+01	8.633881e-27
1.412538e+01	8.661768e-27
1.415794e+01	8.682775e-27
1.419058e+01	8.703854e-27
1.422329e+01	8.725012e-27
1.425608e+01	8.753340e-27
1.428894e+01	8.774680e-27
1.432188e+01	8.796096e-27
1.435489e+01	8.817591e-27
1.438799e+01	8.846377e-27
1.442115e+01	8.868063e-27
1.445440e+01	8.889825e-27
1.448772e+01	8.918972e-27
1.452112e+01	8.940928e-27
1.455459e+01	8.962968e-27
1.458814e+01	8.992483e-27
1.462177e+01	9.014719e-27
1.465548e+01	9.044498e-27
1.468926e+01	9.066932e-27
1.472313e+01	9.089455e-27
1.475707e+01	9.119619e-27
1.479108e+01	9.142342e-27
1.482518e+01	9.172781e-27
1.485936e+01	9.195712e-27
1.489361e+01	9.218736e-27
1.492794e+01	9.249572e-27
1.496236e+01	9.272804e-27
1.499685e+01	9.303925e-27
1.503142e+01	9.327374e-27
1.506607e+01	9.358783e-27
1.510080e+01	9.382452e-27
1.513561e+01	9.414156e-27
1.517050e+01	9.438043e-27
1.520548e+01	9.470047e-27
1.524053e+01	9.494160e-27
1.527566e+01	9.526463e-27
1.531087e+01	9.550808e-27
1.534617e+01	9.583418e-27
1.538155e+01	9.607991e-27
1.541700e+01	9.640913e-27
1.545254e+01	9.665724e-27
1.548817e+01	9.698959e-27
1.552387e+01	9.724008e-27
1.555966e+01	9.757568e-27
1.559553e+01	9.791311e-27
1.563148e+01	9.816744e-27
1.566751e+01	9.850814e-27
1.570363e+01	9.876493e-27
1.573983e+01	9.910896e-27
1.577611e+01	9.945489e-27
1.581248e+01	9.971564e-27
1.584893e+01	1.000650e-26
1.588547e+01	1.004163e-26
1.592209e+01	1.006811e-26
1.595879e+01	1.010359e-26
1.599558e+01	1.013927e-26
1.603245e+01	1.016616e-26
1.606941e+01	1.020219e-26
1.610646e+01	1.023843e-26
1.614359e+01	1.026574e-26
1.618080e+01	1.030234e-26
1.621810e+01	1.033915e-26
1.625549e+01	1.037617e-26
1.629296e+01	1.040408e-26
1.633052e+01	1.044147e-26
1.636817e+01	1.047908e-26
1.640590e+01	1.051690e-26
1.644372e+01	1.054541e-26
1.648162e+01	1.058361e-26
1.651962e+01	1.062204e-26
1.655770e+01	1.066068e-26
1.659587e+01	1.069956e-26
1.663413e+01	1.072886e-26
1.667247e+01	1.076813e-26
1.671091e+01	1.080762e-26
1.674943e+01	1.084735e-26
1.678804e+01	1.088731e-26
1.682674e+01	1.092750e-26
1.686553e+01	1.096792e-26
1.690441e+01	1.099840e-26
1.694338e+01	1.103924e-26
1.698244e+01	1.108031e-26
1.702159e+01	1.112163e-26
1.706082e+01	1.116319e-26
1.710015e+01	1.120500e-26
1.713957e+01	1.124705e-26
1.717908e+01	1.128935e-26
1.721869e+01	1.133190e-26
1.725838e+01	1.137470e-26
1.729816e+01	1.141775e-26
1.733804e+01	1.146105e-26
1.737801e+01	1.150461e-26
1.741807e+01	1.154842e-26
1.745822e+01	1.159250e-26
1.749847e+01	1.163683e-26
1.753881e+01	1.168143e-26
1.757924e+01	1.172629e-26
1.761976e+01	1.177142e-26
1.766038e+01	1.181681e-26
1.770109e+01	1.186247e-26
1.774189e+01	1.190840e-26
1.778279e+01	1.195460e-26
1.782379e+01	1.200108e-26
1.786488e+01	1.204783e-26
1.790606e+01	1.210665e-26
1.794734e+01	1.215403e-26
1.798871e+01	1.220169e-26
1.803018e+01	1.224962e-26
1.807174e+01	1.229784e-26
1.811340e+01	1.234635e-26
1.815516e+01	1.240739e-26
1.819701e+01	1.245654e-26
1.823896e+01	1.250598e-26
1.828100e+01	1.255572e-26
1.832314e+01	1.260575e-26
1.836538e+01	1.266871e-26
1.840772e+01	1.271940e-26
1.845015e+01	1.277040e-26
1.849269e+01	1.282170e-26
1.853532e+01	1.288624e-26
1.857804e+01	1.293822e-26
1.862087e+01	1.299051e-26
1.866380e+01	1.304310e-26
1.870682e+01	1.310928e-26
1.874995e+01	1.316257e-26
1.879317e+01	1.321618e-26
1.883649e+01	1.328363e-26
1.887991e+01	1.333794e-26
1.892344e+01	1.339258e-26
1.896706e+01	1.346132e-26
1.901078e+01	1.351668e-26
1.905461e+01	1.357235e-26
1.909853e+01	1.364241e-26
1.914256e+01	1.369883e-26
1.918669e+01	1.376981e-26
1.923092e+01	1.382696e-26
1.927525e+01	1.389888e-26
1.931968e+01	1.395678e-26
1.936422e+01	1.401502e-26
1.940886e+01	1.408830e-26
1.945360e+01	1.414730e-26
1.949845e+01	1.422154e-26
1.954339e+01	1.428131e-26
1.958845e+01	1.435651e-26
1.963360e+01	1.441706e-26
1.967886e+01	1.449324e-26
1.972423e+01	1.455458e-26
1.976970e+01	1.463175e-26
1.981527e+01	1.470946e-26
1.986095e+01	1.477204e-26
1.990673e+01	1.485076e-26
1.995262e+01	1.491414e-26
1.999862e+01	1.499388e-26
2.004472e+01	1.505808e-26
2.009093e+01	1.513883e-26
2.013724e+01	1.522016e-26
2.018366e+01	1.528564e-26
2.023019e+01	1.536801e-26
2.027683e+01	1.545095e-26
2.032357e+01	1.551773e-26
2.037042e+01	1.560173e-26
2.041738e+01	1.568632e-26
2.046445e+01	1.575442e-26
2.051162e+01	1.584008e-26
2.055891e+01	1.592633e-26
2.060630e+01	1.601318e-26
2.065380e+01	1.608310e-26
2.070141e+01	1.617104e-26
2.074914e+01	1.625959e-26
2.079697e+01	1.634875e-26
2.084491e+01	1.642052e-26
2.089296e+01	1.651078e-26
2.094112e+01	1.660167e-26
2.098940e+01	1.669318e-26
2.103778e+01	1.678531e-26
2.108628e+01	1.687807e-26
2.113489e+01	1.695273e-26
2.118361e+01	1.704663e-26
2.123244e+01	1.714115e-26
2.128139e+01	1.723633e-26
2.133045e+01	1.733213e-26
2.137962e+01	1.742858e-26
2.142891e+01	1.752568e-26
2.147830e+01	1.762343e-26
2.152782e+01	1.772183e-26
2.157744e+01	1.782088e-26
2.162719e+01	1.792059e-26
2.167704e+01	1.802096e-26
2.172701e+01	1.812199e-26
2.177710e+01	1.822369e-26
2.182730e+01	1.832605e-26
2.187762e+01	1.842908e-26
2.192805e+01	1.853279e-26
2.197860e+01	1.863716e-26
2.202926e+01	1.874222e-26
2.208005e+01	1.884796e-26
2.213095e+01	1.895438e-26
2.218196e+01	1.906149e-26
2.223310e+01	1.916928e-26
2.228435e+01	1.927776e-26
2.233572e+01	1.940885e-26
2.238721e+01	1.951886e-26
2.243882e+01	1.962957e-26
2.249055e+01	1.974098e-26
2.254239e+01	1.985309e-26
2.259436e+01	1.996590e-26
2.264644e+01	2.010222e-26
2.269865e+01	2.021659e-26
2.275097e+01	2.033167e-26
2.280342e+01	2.044748e-26
2.285599e+01	2.058739e-26
2.290868e+01	2.070477e-26
2.296149e+01	2.082287e-26
2.301442e+01	2.094170e-26
2.306747e+01	2.108525e-26
2.312065e+01	2.120568e-26
2.317395e+01	2.132684e-26
2.322737e+01	2.147320e-26
2.328091e+01	2.159598e-26
2.333458e+01	2.171949e-26
2.338837e+01	2.186869e-26
2.344229e+01	2.199384e-26
2.349633e+01	2.214500e-26
2.355049e+01	2.227178e-26
2.360478e+01	2.239932e-26
2.365920e+01	2.255336e-26
2.371374e+01	2.268255e-26
2.376840e+01	2.283858e-26
2.382319e+01	2.296944e-26
2.387811e+01	2.312747e-26
2.393316e+01	2.326001e-26
2.398833e+01	2.342005e-26
2.404363e+01	2.355428e-26
2.409905e+01	2.371635e-26
2.415461e+01	2.385226e-26
2.421029e+01	2.401637e-26
2.426610e+01	2.418160e-26
2.432204e+01	2.432015e-26
2.437811e+01	2.448743e-26
2.443431e+01	2.462769e-26
2.449063e+01	2.479704e-26
2.454709e+01	2.496751e-26
2.460368e+01	2.511044e-26
2.466039e+01	2.528300e-26
2.471724e+01	2.545669e-26
2.477422e+01	2.560231e-26
2.483133e+01	2.577809e-26
2.488857e+01	2.595503e-26
2.494595e+01	2.613311e-26
2.500345e+01	2.628239e-26
2.506109e+01	2.646154e-26
2.511886e+01	2.664183e-26
2.517677e+01	2.682327e-26
2.523481e+01	2.697535e-26
2.529298e+01	2.715890e-26
2.535129e+01	2.734360e-26
2.540973e+01	2.752946e-26
2.546830e+01	2.771647e-26
2.552701e+01	2.790465e-26
2.558586e+01	2.809399e-26
2.564484e+01	2.825267e-26
2.570396e+01	2.844415e-26
2.576321e+01	2.863680e-26
2.582260e+01	2.883062e-26
2.588213e+01	2.902562e-26
2.594179e+01	2.922180e-26
2.600160e+01	2.941915e-26
2.606154e+01	2.961768e-26
2.612161e+01	2.981740e-26
2.618183e+01	3.001830e-26
2.624219e+01	3.022039e-26
2.630268e+01	3.042366e-26
2.636331e+01	3.062814e-26
2.642409e+01	3.083380e-26
2.648500e+01	3.107524e-26
2.654606e+01	3.128349e-26
2.660725e+01	3.149295e-26
2.666859e+01	3.170359e-26
2.673006e+01	3.191544e-26
2.679168e+01	3.212850e-26
2.685344e+01	3.234276e-26
2.691535e+01	3.259425e-26
2.697739e+01	3.281113e-26
2.703958e+01	3.302922e-26
2.710192e+01	3.324851e-26
2.716439e+01	3.346902e-26
2.722701e+01	3.372782e-26
2.728978e+01	3.395096e-26
2.735269e+01	3.417532e-26
2.741574e+01	3.443862e-26
2.747894e+01	3.466562e-26
2.754229e+01	3.489385e-26
2.760578e+01	3.516165e-26
2.766942e+01	3.539252e-26
2.773320e+01	3.562462e-26
2.779713e+01	3.589695e-26
2.786121e+01	3.613171e-26
2.792544e+01	3.640715e-26
2.798981e+01	3.664457e-26
2.805434e+01	3.688321e-26
2.811901e+01	3.716320e-26
2.818383e+01	3.740452e-26
2.824880e+01	3.768762e-26
2.831392e+01	3.793161e-26
2.837919e+01	3.821783e-26
2.844461e+01	3.846451e-26
2.851018e+01	3.875385e-26
2.857591e+01	3.904488e-26
2.864178e+01	3.929568e-26
2.870781e+01	3.958983e-26
2.877398e+01	3.984332e-26
2.884032e+01	4.014061e-26
2.890680e+01	4.043960e-26
2.897344e+01	4.069722e-26
2.904023e+01	4.099934e-26
2.910717e+01	4.130316e-26
2.917427e+01	4.156491e-26
2.924152e+01	4.187187e-26
2.930893e+01	4.218052e-26
2.937650e+01	4.249086e-26
2.944422e+01	4.275822e-26
2.951209e+01	4.307171e-26
2.958012e+01	4.338688e-26
2.964831e+01	4.370376e-26
2.971666e+01	4.402233e-26
2.978516e+01	4.434260e-26
2.985383e+01	4.461846e-26
2.992265e+01	4.494187e-26
2.999163e+01	4.526698e-26
3.006076e+01	4.559378e-26
3.013006e+01	4.592227e-26
3.019952e+01	4.625247e-26
3.026913e+01	4.658435e-26
3.033891e+01	4.691793e-26
3.040885e+01	4.725320e-26
3.047895e+01	4.759017e-26
3.054921e+01	4.792882e-26
3.061963e+01	4.826918e-26
3.069022e+01	4.861122e-26
3.076097e+01	4.895496e-26
3.083188e+01	4.930038e-26
3.090295e+01	4.964749e-26
3.097419e+01	4.999629e-26
3.104560e+01	5.039700e-26
3.111716e+01	5.074942e-26
3.118890e+01	5.110353e-26
3.126079e+01	5.145932e-26
3.133286e+01	5.181680e-26
3.140509e+01	5.222741e-26
3.147748e+01	5.258850e-26
3.155005e+01	5.295127e-26
3.162278e+01	5.331573e-26
3.169567e+01	5.373429e-26
3.176874e+01	5.410233e-26
3.184198e+01	5.447206e-26
3.191538e+01	5.489665e-26
3.198895e+01	5.526995e-26
3.206269e+01	5.564495e-26
3.213661e+01	5.607553e-26
3.221069e+01	5.645409e-26
3.228494e+01	5.683432e-26
3.235937e+01	5.727092e-26
3.243396e+01	5.765471e-26
3.250873e+01	5.809536e-26
3.258367e+01	5.848274e-26
3.265878e+01	5.892746e-26
3.273407e+01	5.931836e-26
3.280953e+01	5.976715e-26
3.288516e+01	6.021808e-26
3.296097e+01	6.061442e-26
3.303695e+01	6.106941e-26
3.311311e+01	6.146928e-26
3.318945e+01	6.192827e-26
3.326596e+01	6.238943e-26
3.334264e+01	6.279469e-26
3.341950e+01	6.325985e-26
3.349654e+01	6.372716e-26
3.357376e+01	6.413779e-26
3.365116e+01	6.460909e-26
3.372873e+01	6.508250e-26
3.380648e+01	6.555805e-26
3.388442e+01	6.597588e-26
3.396253e+01	6.645537e-26
3.404082e+01	6.693700e-26
3.411929e+01	6.742072e-26
3.419794e+01	6.790656e-26
3.427678e+01	6.839447e-26
3.435579e+01	6.888450e-26
3.443499e+01	6.931498e-26
3.451437e+01	6.980891e-26
3.459394e+01	7.030495e-26
3.467369e+01	7.080303e-26
3.475362e+01	7.130323e-26
3.483373e+01	7.180548e-26
3.491403e+01	7.230979e-26
3.499452e+01	7.281618e-26
3.507519e+01	7.338832e-26
3.515604e+01	7.389905e-26
3.523709e+01	7.441185e-26
3.531832e+01	7.492668e-26
3.539973e+01	7.544357e-26
3.548134e+01	7.596247e-26
3.556313e+01	7.648342e-26
3.564511e+01	7.707190e-26
3.572728e+01	7.759712e-26
3.580964e+01	7.812438e-26
3.589219e+01	7.865364e-26
3.597493e+01	7.918491e-26
3.605786e+01	7.978498e-26
3.614099e+01	8.032047e-26
3.622430e+01	8.085798e-26
3.630781e+01	8.146504e-26
3.639150e+01	8.200673e-26
3.647539e+01	8.261852e-26
3.655948e+01	8.316442e-26
3.664376e+01	8.371226e-26
3.672823e+01	8.433093e-26
3.681290e+01	8.488295e-26
3.689776e+01	8.550628e-26
3.698282e+01	8.606239e-26
3.706807e+01	8.669036e-26
3.715352e+01	8.725059e-26
3.723917e+01	8.788315e-26
3.732502e+01	8.851813e-26
3.741106e+01	8.908456e-26
3.749730e+01	8.972410e-26
3.758374e+01	9.029460e-26
3.767038e+01	9.093863e-26
3.775722e+01	9.158507e-26
3.784426e+01	9.216169e-26
3.793150e+01	9.281262e-26
3.801894e+01	9.346590e-26
3.810658e+01	9.412153e-26
3.819443e+01	9.470627e-26
3.828247e+01	9.536632e-26
3.837072e+01	9.602870e-26
3.845918e+01	9.669339e-26
3.854784e+01	9.736040e-26
3.863670e+01	9.802971e-26
3.872576e+01	9.870130e-26
3.881504e+01	9.937518e-26
3.890451e+01	9.997610e-26
3.899420e+01	1.006543e-25
3.908409e+01	1.013347e-25
3.917419e+01	1.020173e-25
3.926449e+01	1.027022e-25
3.935501e+01	1.034659e-25
3.944573e+01	1.041555e-25
3.953666e+01	1.048473e-25
3.962780e+01	1.055413e-25
3.971915e+01	1.062375e-25
3.981072e+01	1.069359e-25
3.990249e+01	1.076365e-25
3.999447e+01	1.083392e-25
4.008667e+01	1.091225e-25
4.017908e+01	1.098298e-25
4.027170e+01	1.105392e-25
4.036454e+01	1.112507e-25
4.045759e+01	1.120438e-25
4.055085e+01	1.127598e-25
4.064433e+01	1.134778e-25
4.073803e+01	1.142782e-25
4.083194e+01	1.150006e-25
4.092607e+01	1.158058e-25
4.102041e+01	1.165326e-25
4.111497e+01	1.172615e-25
4.120975e+01	1.180737e-25
4.130475e+01	1.188069e-25
4.139997e+01	1.196239e-25
4.149540e+01	1.204433e-25
4.159106e+01	1.211829e-25
4.168694e+01	1.220070e-25
4.178304e+01	1.227508e-25
4.187936e+01	1.235796e-25
4.197590e+01	1.244107e-25
4.207266e+01	1.251608e-25
4.216965e+01	1.259965e-25
4.226686e+01	1.268346e-25
4.236430e+01	1.275908e-25
4.246196e+01	1.284333e-25
4.255984e+01	1.292782e-25
4.265795e+01	1.301254e-25
4.275629e+01	1.309749e-25
4.285485e+01	1.317414e-25
4.295364e+01	1.325952e-25
4.305266e+01	1.334513e-25
4.315191e+01	1.343096e-25
4.325138e+01	1.351702e-25
4.335109e+01	1.360330e-25
4.345102e+01	1.368980e-25
4.355119e+01	1.377652e-25
4.365158e+01	1.386346e-25
4.375221e+01	1.395062e-25
4.385307e+01	1.403799e-25
4.395416e+01	1.412558e-25
4.405549e+01	1.422217e-25
4.415704e+01	1.431020e-25
4.425884e+01	1.439844e-25
4.436086e+01	1.448689e-25
4.446313e+01	1.457555e-25
4.456562e+01	1.467331e-25
4.466836e+01	1.476239e-25
4.477133e+01	1.485168e-25
4.487454e+01	1.494117e-25
4.497799e+01	1.503985e-25
4.508167e+01	1.512976e-25
4.518559e+01	1.522889e-25
4.528976e+01	1.531921e-25
4.539416e+01	1.540973e-25
4.549881e+01	1.550952e-25
4.560369e+01	1.560044e-25
4.570882e+01	1.570068e-25
4.581419e+01	1.579200e-25
4.591980e+01	1.589266e-25
4.602566e+01	1.599356e-25
4.613176e+01	1.608547e-25
4.623810e+01	1.618679e-25
4.634469e+01	1.627908e-25
4.645153e+01	1.638082e-25
4.655861e+01	1.648277e-25
4.666594e+01	1.658493e-25
4.677351e+01	1.667800e-25
4.688134e+01	1.678057e-25
4.698941e+01	1.688334e-25
4.709773e+01	1.698633e-25
4.720630e+01	1.708952e-25
4.731513e+01	1.719291e-25
4.742420e+01	1.728708e-25
4.753352e+01	1.739086e-25
4.764310e+01	1.749484e-25
4.775293e+01	1.759902e-25
4.786301e+01	1.770339e-25
4.797334e+01	1.780795e-25
4.808393e+01	1.791271e-25
4.819478e+01	1.801765e-25
4.830588e+01	1.813235e-25
4.841724e+01	1.823768e-25
4.852885e+01	1.834320e-25
4.864072e+01	1.844891e-25
4.875285e+01	1.855479e-25
4.886524e+01	1.867050e-25
4.897788e+01	1.877676e-25
4.909079e+01	1.888319e-25
4.920395e+01	1.898980e-25
4.931738e+01	1.910629e-25
4.943107e+01	1.921326e-25
4.954502e+01	1.933014e-25
4.965923e+01	1.943746e-25
4.977371e+01	1.954494e-25
4.988845e+01	1.966237e-25
5.000345e+01	1.977020e-25
5.011872e+01	1.988782e-25
5.023426e+01	1.999581e-25
5.035006e+01	2.011378e-25
5.046613e+01	2.023195e-25
5.058247e+01	2.034043e-25
5.069907e+01	2.045894e-25
5.081594e+01	2.057763e-25
5.093309e+01	2.068658e-25
5.105050e+01	2.080560e-25
5.116818e+01	2.092480e-25
5.128614e+01	2.104416e-25
5.140437e+01	2.115373e-25
5.152286e+01	2.127341e-25
5.164164e+01	2.139325e-25
5.176068e+01	2.151326e-25
5.188000e+01	2.163343e-25
5.199960e+01	2.175375e-25
5.211947e+01	2.187423e-25
5.223962e+01	2.199487e-25
5.236004e+01	2.211565e-25
5.248075e+01	2.223658e-25
5.260173e+01	2.235766e-25
5.272299e+01	2.247888e-25
5.284453e+01	2.260025e-25
5.296634e+01	2.273189e-25
5.308844e+01	2.285355e-25
5.321083e+01	2.297535e-25
5.333349e+01	2.309728e-25
5.345644e+01	2.322953e-25
5.357967e+01	2.335174e-25
5.370318e+01	2.347407e-25
5.382698e+01	2.360675e-25
5.395106e+01	2.372935e-25
5.407543e+01	2.386231e-25
5.420009e+01	2.398516e-25
5.432503e+01	2.411840e-25
5.445027e+01	2.424150e-25
5.457579e+01	2.437499e-25
5.470160e+01	2.449833e-25
5.482770e+01	2.463209e-25
5.495409e+01	2.475566e-25
5.508077e+01	2.488966e-25
5.520774e+01	2.502377e-25
5.533501e+01	2.515802e-25
5.546257e+01	2.528204e-25
5.559043e+01	2.541651e-25
5.571857e+01	2.555110e-25
5.584702e+01	2.568580e-25
5.597576e+01	2.582062e-25
5.610480e+01	2.594516e-25
5.623413e+01	2.608018e-25
5.636377e+01	2.621531e-25
5.649370e+01	2.635055e-25
5.662393e+01	2.648588e-25
5.675446e+01	2.662131e-25
5.688529e+01	2.676727e-25
5.701643e+01	2.690290e-25
5.714786e+01	2.703863e-25
5.727960e+01	2.717444e-25
5.741165e+01	2.731035e-25
5.754399e+01	2.744634e-25
5.767665e+01	2.759289e-25
5.780960e+01	2.772905e-25
5.794287e+01	2.786529e-25
5.807644e+01	2.801211e-25
5.821032e+01	2.814852e-25
5.834451e+01	2.828500e-25
